##TITLE=1D-1H-32-6.4-10-30
##JCAMP-DX=5.01 $$ Magritek Spinsolve SPA4096 2.4.3.7506
##DATA TYPE=NMR FID
##DATA CLASS=NTUPLES
##ORIGIN=SPA4096 at Magritek
##OWNER=Copyright (C) 2025 by Magritek
##LONGDATE=2025/02/20 22:13:06.426
##.OBSERVE FREQUENCY=80.0690548494458
##.OBSERVE NUCLEUS=^1H
##.DELAY=( 48.16938,  10000)
##.ACQUISITION MODE=SIMULTANEOUS
##.FIELD= 2.0
##.AVERAGES= 32
##.DIGITISER RES=16
##.SHIFT REFERENCE=(INTERNAL,  DCE , 16387.5, 4.74)
##$REFERENCE_POINT= 2119.821    $$ Referencing label
$$      Distance of the zero axis position (in Hz) from the last data
$$      point (right edge); positive values -> right edge is below 0 Hz
##SPECTROMETER/DATA SYSTEM=Magritek
##SAMPLE DESCRIPTION=solvent= DCE 
$$ Bruker specific parameters
$$ --------------------------
##$AUNMP=   <proc_1d_nosref>
##$INSTRUM= <Magritek>
##$SI=      32768
##$TD=      32768
##$TDeff=   32768
##$SW=      62.446100
##$BF1=     80.0690548494458
##$SF=      80.0686746701652
##$LB=      0
##$PHC0=    0.9
##$PHC1=    0.0
##$REVERSE= yes
$$ End of Bruker specific parameters
$$ ---------------------------------
##NTUPLES=NMR FID
##VAR_NAME=        TIME,            FID/REAL,            FID/IMAG, PAGE NUMBER
##SYMBOL=             X,                   R,                   I,           N
##VAR_TYPE= INDEPENDENT,           DEPENDENT,           DEPENDENT,        PAGE
##VAR_FORM=        AFFN,                AFFN,                AFFN,        AFFN
##VAR_DIM=        32768,               32768,               32768,           2
##UNITS=        SECONDS,     ARBITRARY UNITS,     ARBITRARY UNITS,            
##FIRST=              0,    5622.14030930031,    -88.319637584267,           1
##LAST=    6.553400e+00,-6.4372093469040e-04,3.21681035525173e-04,           2
##MIN=                0,   -10519.0069417094,   -10421.8516418583,           1
##MAX=     6.553400e+00,    11203.0329784387,    10909.4065593375,           2
##FACTOR=             1,                   1,                   1,           1
##PAGE=N=1
##DATA TABLE=(X++(R..R)), XYDATA
0.000000  5622.140309 11203.032978 11020.466308 10719.187207 10331.555347  9835.258498
0.001200  9266.682103  8628.242988  7931.813122  7192.578452  6419.873752  5621.925798
0.002400  4805.949771  3980.764220  3149.217047  2311.608243  1470.614473   627.617747
0.003600  -216.965843 -1064.546550 -1912.462314 -2759.473108 -3603.186268 -4436.254279
0.004800 -5254.546332 -6049.302612 -6810.585763 -7530.207073 -8194.348180 -8793.125942
0.006000 -9317.882450 -9756.490642 -10101.000984 -10345.229170 -10483.799307 -10519.006942
0.007200 -10447.878660 -10276.299563 -10009.823733 -9655.943310 -9224.720078 -8723.599532
0.008400 -8164.718068 -7555.561558 -6906.332725 -6222.659781 -5512.633945 -4780.001115
0.009600 -4027.581773 -3256.976246 -2468.742374 -1665.274038  -845.203107   -11.372846
0.010800   836.487505  1694.163285  2556.863152  3417.297516  4269.494378  5106.043541
0.012000  5914.977323  6685.225578  7405.224692  8063.318455  8650.022207  9156.472708
0.013200  9574.096837  9895.862367 10120.855148 10244.332658 10269.239589 10198.779985
0.014400 10035.586345  9786.898422  9460.546019  9065.134658  8608.434192  8096.185927
0.015600  7539.109300  6941.782787  6310.484886  5648.929624  4958.586362  4244.836295
0.016800  3508.443339  2748.145288  1968.624093  1170.737831   355.694841  -470.831224
0.018000 -1304.596480 -2142.786581 -2973.736842 -3789.793685 -4586.482284 -5351.477938
0.019200 -6074.131969 -6746.758471 -7359.293877 -7902.880181 -8372.693093 -8760.614707
0.020400 -9067.288304 -9287.031397 -9420.051303 -9467.804857 -9431.076266 -9317.415299
0.021600 -9129.378356 -8872.501648 -8552.047426 -8171.772633 -7740.404854 -7260.293438
0.022800 -6735.754394 -6169.885387 -5565.342241 -4926.572260 -4252.265232 -3546.739190
0.024000 -2813.870494 -2053.076208 -1271.558563  -472.457587   341.242477  1160.275965
0.025200  1979.973302  2791.659293  3588.288188  4358.393400  5093.760413  5787.501968
0.026400  6431.090918  7013.895332  7532.061383  7978.959996  8352.032965  8648.794097
0.027600  8865.698802  9003.748515  9065.177336  9050.717019  8962.472214  8804.831037
0.028800  8582.926628  8298.521567  7958.093554  7561.179461  7115.039777  6622.835703
0.030000  6086.090129  5509.543636  4894.937441  4245.563937  3566.205490  2859.615998
0.031200  2131.417339  1383.545913   620.522944  -149.519276  -922.878155 -1691.689853
0.032400 -2448.403922 -3188.164902 -3903.187222 -4586.579801 -5230.061428 -5827.898036
0.033600 -6375.881162 -6867.189403 -7298.468570 -7665.815883 -7966.354435 -8199.172870
0.034800 -8361.812515 -8456.137754 -8481.943305 -8437.682186 -8330.415742 -8159.086906
0.036000 -7925.993204 -7635.263685 -7287.714057 -6888.340666 -6439.124534 -5943.030950
0.037200 -5403.611998 -4824.948711 -4210.164475 -3562.477160 -2886.599534 -2189.711115
0.038400 -1472.561819  -741.004760    -4.264993   733.374210  1468.190948  2191.423561
0.039600  2896.995034  3578.223382  4229.114938  4844.198503  5417.447885  5943.311622
0.040800  6416.569118  6832.810125  7192.172460  7487.187987  7718.200187  7884.732579
0.042000  7985.925120  8020.457354  7991.780187  7898.841644  7743.629271  7532.295337
0.043200  7262.101464  6938.986509  6566.094979  6143.524652  5677.649807  5171.024465
0.044400  4628.172652  4051.155974  3445.492270  2815.986982  2163.898541  1494.960101
0.045600   814.036166   128.036006  -561.570063 -1246.227968 -1921.678207 -2585.420126
0.046800 -3226.951273 -3842.922699 -4429.103768 -4978.226640 -5484.628165 -5945.428361
0.048000 -6355.793782 -6712.379202 -7011.783835 -7252.802355 -7431.194214 -7548.525239
0.049200 -7604.705491 -7597.795207 -7529.399070 -7401.333240 -7216.541986 -6977.317083
0.050400 -6684.245110 -6340.794470 -5954.288296 -5523.269419 -5050.856626 -4544.444496
0.051600 -4005.757459 -3436.875943 -2844.554128 -2232.532049 -1603.618095  -963.115562
0.052800  -312.224526   339.378520   988.396712  1631.495938  2260.537662  2872.251185
0.054000  3458.705889  4017.581552  4541.152451  5028.106935  5468.967814  5862.217261
0.055200  6206.374686  6496.305783  6729.493094  6906.179327  7025.422303  7084.477953
0.056400  7086.861836  7032.662515  6921.807284  6757.522376  6541.601632  6276.277841
0.057600  5965.096575  5610.402411  5215.585467  4782.481067  4314.658593  3814.979827
0.058800  3287.885110  2735.605265  2164.062140  1574.063359   971.250646   361.396914
0.060000  -253.877112  -867.623461 -1475.020159 -2071.769463 -2651.131840 -3208.359752
0.061200 -3738.896931 -4237.362983 -4700.424652 -5121.774073 -5498.994514 -5830.677332
0.062400 -6110.712783 -6340.117321 -6516.878937 -6636.857534 -6705.440891 -6720.437847
0.063600 -6682.533899 -6592.442577 -6451.941633 -6264.325645 -6029.812325 -5751.400745
0.064800 -5431.186048 -5070.996952 -4673.666750 -4242.368053 -3781.050984 -3289.100386
0.066000 -2772.511491 -2235.293847 -1680.432001 -1111.714045  -535.465204    44.616314
0.067200   627.325850  1203.133928  1767.582583  2315.267835  2843.508724  3347.417934
0.068400  3820.065762  4258.615711  4660.279830  5019.366134  5334.832006  5604.046181
0.069600  5826.391618  5999.561159  6123.857523  6197.881873  6221.398823  6196.839116
0.070800  6126.565917  6005.957229  5841.695648  5633.666011  5382.140542  5091.699646
0.072000  4762.302472  4397.165551  4000.127720  3571.466192  3114.006006  2633.752709
0.073200  2132.499062  1612.366959  1079.911537   538.581511    -7.507353  -553.410545
0.074400 -1093.413691 -1624.671518 -2141.426329 -2638.027896 -3112.268963 -3557.202680
0.075600 -3971.889071 -4351.873613 -4694.880567 -4997.071415 -5256.861020 -5472.231635
0.076800 -5644.463695 -5770.777229 -5849.589793 -5884.233862 -5874.039592 -5816.823482
0.078000 -5717.111495 -5574.120213 -5389.278868 -5162.923332 -4898.766415 -4598.563111
0.079200 -4261.613406 -3892.725680 -3495.024204 -3069.855339 -2621.364658 -2152.445902
0.080400 -1666.320029 -1167.437423  -659.992217  -147.218378   363.247747   869.801320
0.081600  1366.614013  1850.489012  2316.493380  2760.609564  3180.949818  3571.809720
0.082800  3929.926916  4255.482975  4544.383372  4793.303794  5002.409614  5173.132501
0.084000  5300.689060  5387.044791  5431.148669  5431.274273  5391.645627  5310.171475
0.085200  5185.435378  5023.167296  4822.708265  4585.440444  4311.444448  4002.559077
0.086400  3664.368613  3296.032449  2902.025474  2486.306717  2047.032580  1593.874026
0.087600  1129.128536   653.670674   175.610378  -302.694462  -777.859725 -1243.699497
0.088800 -1698.329367 -2135.801008 -2552.608144 -2946.124129 -3314.154031 -3651.579513
0.090000 -3957.955550 -4231.267885 -4469.335373 -4670.986320 -4835.993636 -4963.362333
0.091200 -5048.573366 -5096.849562 -5107.356885 -5077.191054 -5007.421789 -4901.832799
0.092400 -4758.041894 -4578.087457 -4362.161370 -4112.346903 -3832.338620 -3521.161380
0.093600 -3180.093913 -2814.644976 -2428.364017 -2022.217962 -1600.964399 -1166.137054
0.094800  -724.024795  -278.131515   168.730586   611.609923  1047.576052  1470.732607
0.096000  1877.828752  2266.470176  2635.342998  2979.405790  3296.454718  3585.430877
0.097200  3843.816854  4071.374186  4265.047895  4424.209927  4551.084968  4641.478743
0.098400  4696.779302  4714.224187  4697.654732  4645.078874  4555.267046  4432.921696
0.099600  4276.422812  4083.352020  3860.294223  3605.646739  3319.662470  3008.894951
0.100800  2673.445806  2316.496375  1939.687990  1547.905002  1144.917209   732.416112
0.102000   317.570623   -98.080419  -511.701553  -917.251414 -1311.176903 -1694.334170
0.103200 -2058.845609 -2403.616502 -2725.969495 -3024.608080 -3297.801229 -3543.161269
0.104400 -3759.108502 -3945.931531 -4101.717384 -4223.944595 -4315.429006 -4372.075763
0.105600 -4397.062617 -4386.971150 -4342.269045 -4264.846134 -4152.644992 -4008.618350
0.106800 -3832.067391 -3625.481470 -3388.492813 -3123.700231 -2835.002755 -2522.852903
0.108000 -2190.011809 -1843.300592 -1481.977685 -1108.484982  -729.758641  -348.707628
